#Valim[V]	Ceq [pF]
05.00 		3067    
10.00		2199
15.00       1837			
20.00       1626	
25.00		1484
30.00		1378
35.00		1296
40.00		1212
45.00		1175
50.00		1129
55.00    	1090
60.00		1055
65.00 		1026
70.00 		999    	
75.00    	975
79.90 		954