#Valim[V]	Vleak [V]
5.075 		0.025
10.00		0.027
15.04 		0.029
20.03		0.031
25.07 		0.032
30.03		0.034
35.05 		0.035
40.12		0.036
45.08 		0.038
50.19		0.039
55.10 		0.040
60.17		0.041
65.3 		0.042
70.3		0.043
75.3 		0.044
80.3 		0.045
84.0		0.046