   -1.619689      0.0000000E+00
    3.620546      0.0000000E+00
    8.860783      0.0000000E+00
    14.10102      0.0000000E+00
    19.34125      0.0000000E+00
    24.58149      0.0000000E+00
    29.82172      0.0000000E+00
    35.06196      0.0000000E+00
    40.30220      0.0000000E+00
    45.54243      0.0000000E+00
    50.78267      0.0000000E+00
    56.02290      0.0000000E+00
    61.26314      0.0000000E+00
    66.50338       92.00000    
    71.74361       598.0000    
    76.98385       22616.00    
    82.22408       34241.00    
    87.46432       34689.00    
    92.70455       34385.00    
    97.94479       35208.00    
    103.1850       35091.00    
    108.4253       35376.00    
    113.6655       35629.00    
    118.9057       36635.00    
    124.1460       38702.00    
    129.3862       41294.00    
    134.6264       44338.00    
    139.8667       45197.00    
    145.1069       43042.00    
    150.3472       38344.00    
    155.5874       33403.00    
    160.8276       30158.00    
    166.0679       27382.00    
    171.3081       25760.00    
    176.5483       24523.00    
    181.7886       23674.00    
    187.0288       22773.00    
    192.2690       22404.00    
    197.5093       21740.00    
    202.7495       22031.00    
    207.9897       21851.00    
    213.2300       21974.00    
    218.4702       21232.00    
    223.7104       20064.00    
    228.9507       19065.00    
    234.1909       17168.00    
    239.4312       16329.00    
    244.6714       15226.00    
    249.9116       14639.00    
    255.1519       14025.00    
    260.3921       13635.00    
    265.6323       13277.00    
    270.8726       12802.00    
    276.1128       12485.00    
    281.3531       12060.00    
    286.5933       11668.00    
    291.8335       11200.00    
    297.0738       10970.00    
    302.3140       10779.00    
    307.5542       10372.00    
    312.7945       9988.000    
    318.0347       9824.000    
    323.2749       9433.000    
    328.5152       9103.000    
    333.7554       8766.000    
    338.9956       8787.000    
    344.2359       8395.000    
    349.4761       8260.000    
    354.7163       7860.000    
    359.9566       7774.000    
    365.1968       7529.000    
    370.4370       7176.000    
    375.6773       7090.000    
    380.9175       6877.000    
    386.1577       6615.000    
    391.3980       6637.000    
    396.6382       6177.000    
    401.8785       6043.000    
    407.1187       6052.000    
    412.3589       5923.000    
    417.5992       5701.000    
    422.8394       5490.000    
    428.0797       5237.000    
    433.3199       5092.000    
    438.5601       4801.000    
    443.8004       4646.000    
    449.0406       4579.000    
    454.2808       4429.000    
    459.5211       4355.000    
    464.7613       4296.000    
    470.0015       4112.000    
    475.2418       4053.000    
    480.4820       3986.000    
    485.7222       3948.000    
    490.9625       3773.000    
    496.2027       3603.000    
    501.4430       3350.000    
    506.6832       3460.000    
    511.9234       3248.000    
    517.1636       3232.000    
    522.4039       3092.000    
    527.6441       2987.000    
    532.8843       2992.000    
    538.1246       2808.000    
    543.3648       2720.000    
    548.6050       2697.000    
    553.8453       2752.000    
    559.0856       2625.000    
    564.3258       2471.000    
    569.5660       2340.000    
    574.8063       2250.000    
    580.0465       2255.000    
    585.2867       2227.000    
    590.5270       2140.000    
    595.7672       1982.000    
    601.0074       1914.000    
    606.2477       1928.000    
    611.4879       1941.000    
    616.7281       1858.000    
    621.9684       1826.000    
    627.2086       1699.000    
    632.4489       1709.000    
    637.6891       1549.000    
    642.9293       1553.000    
    648.1696       1504.000    
    653.4098       1515.000    
    658.6500       1348.000    
    663.8903       1348.000    
    669.1305       1356.000    
    674.3707       1264.000    
    679.6110       1249.000    
    684.8512       1148.000    
    690.0914       1186.000    
    695.3317       1113.000    
    700.5719       1086.000    
    705.8121       1091.000    
    711.0524       970.0000    
    716.2926       988.0000    
    721.5328       929.0000    
    726.7731       918.0000    
    732.0133       887.0000    
    737.2535       847.0000    
    742.4938       801.0000    
    747.7340       805.0000    
    752.9742       789.0000    
    758.2145       780.0000    
    763.4547       735.0000    
    768.6949       682.0000    
    773.9352       670.0000    
    779.1755       670.0000    
    784.4157       631.0000    
    789.6559       619.0000    
    794.8962       625.0000    
    800.1364       573.0000    
    805.3766       564.0000    
    810.6169       565.0000    
    815.8571       517.0000    
    821.0974       504.0000    
    826.3376       480.0000    
    831.5778       481.0000    
    836.8181       453.0000    
    842.0583       435.0000    
    847.2985       429.0000    
    852.5388       420.0000    
    857.7790       391.0000    
    863.0192       397.0000    
    868.2595       413.0000    
    873.4997       365.0000    
    878.7399       327.0000    
    883.9802       344.0000    
    889.2204       306.0000    
    894.4606       330.0000    
    899.7009       323.0000    
    904.9411       303.0000    
    910.1813       305.0000    
    915.4216       274.0000    
    920.6618       266.0000    
    925.9020       287.0000    
    931.1423       272.0000    
    936.3825       274.0000    
    941.6227       238.0000    
    946.8630       239.0000    
    952.1032       234.0000    
    957.3434       225.0000    
    962.5837       196.0000    
    967.8239       225.0000    
    973.0641       198.0000    
    978.3044       215.0000    
    983.5446       208.0000    
    988.7849       163.0000    
    994.0251       179.0000    
    999.2653       160.0000    
    1004.506       188.0000    
    1009.746       159.0000    
    1014.986       157.0000    
    1020.226       125.0000    
    1025.467       124.0000    
    1030.707       149.0000    
    1035.947       146.0000    
    1041.187       128.0000    
    1046.427       113.0000    
    1051.668       125.0000    
    1056.908       93.00000    
    1062.148       129.0000    
    1067.388       105.0000    
    1072.629       105.0000    
    1077.869       101.0000    
    1083.109       123.0000    
    1088.349       79.00000    
    1093.590       93.00000    
    1098.830       101.0000    
    1104.070       94.00000    
    1109.310       78.00000    
    1114.551       90.00000    
    1119.791       88.00000    
    1125.031       74.00000    
    1130.271       72.00000    
    1135.511       61.00000    
    1140.752       66.00000    
    1145.992       59.00000    
    1151.232       60.00000    
    1156.472       57.00000    
    1161.713       65.00000    
    1166.953       68.00000    
    1172.193       58.00000    
    1177.433       62.00000    
    1182.674       68.00000    
    1187.914       61.00000    
    1193.154       57.00000    
    1198.394       45.00000    
    1203.635       65.00000    
    1208.875       61.00000    
    1214.115       35.00000    
    1219.355       41.00000    
    1224.595       54.00000    
    1229.836       42.00000    
    1235.076       41.00000    
    1240.316       43.00000    
    1245.556       41.00000    
    1250.797       41.00000    
    1256.037       52.00000    
    1261.277       40.00000    
    1266.517       44.00000    
    1271.758       35.00000    
    1276.998       25.00000    
    1282.238       33.00000    
    1287.478       42.00000    
    1292.719       29.00000    
    1297.959       33.00000    
    1303.199       32.00000    
    1308.439       40.00000    
    1313.679       28.00000    
    1318.920       36.00000    
    1324.160       29.00000    
    1329.400       29.00000    
    1334.640       30.00000    
    1339.881       25.00000    
    1345.121       43.00000    
    1350.361       36.00000    
    1355.601       26.00000    
    1360.842       23.00000    
    1366.082       31.00000    
    1371.322       32.00000    
    1376.562       27.00000    
    1381.802       30.00000    
    1387.043       21.00000    
    1392.283       31.00000    
    1397.523       27.00000    
    1402.763       32.00000    
    1408.004       27.00000    
    1413.244       31.00000    
    1418.484       16.00000    
    1423.724       29.00000    
    1428.965       19.00000    
    1434.205       24.00000    
    1439.445       34.00000    
    1444.685       22.00000    
    1449.926       20.00000    
    1455.166       22.00000    
    1460.406       30.00000    
    1465.646       24.00000    
    1470.886       24.00000    
    1476.127       24.00000    
    1481.367       21.00000    
    1486.607       26.00000    
    1491.847       17.00000    
    1497.088       22.00000    
    1502.328       18.00000    
    1507.568       25.00000    
    1512.808       19.00000    
    1518.049       18.00000    
    1523.289       24.00000    
    1528.529       16.00000    
    1533.769       21.00000    
    1539.010       15.00000    
    1544.250       16.00000    
    1549.490       25.00000    
    1554.730       25.00000    
    1559.970       21.00000    
    1565.211       20.00000    
    1570.451       21.00000    
    1575.691       22.00000    
    1580.932       17.00000    
    1586.172       19.00000    
    1591.412       20.00000    
    1596.652       20.00000    
    1601.893       21.00000    
    1607.133       13.00000    
    1612.373       16.00000    
    1617.613       22.00000    
    1622.854       17.00000    
    1628.094       19.00000    
    1633.334       10.00000    
    1638.574       17.00000    
    1643.814       20.00000    
    1649.055       26.00000    
    1654.295       23.00000    
    1659.535       25.00000    
    1664.775       14.00000    
    1670.016       14.00000    
    1675.256       23.00000    
    1680.496       24.00000    
    1685.736       18.00000    
    1690.977       16.00000    
    1696.217       19.00000    
    1701.457       20.00000    
    1706.697       16.00000    
    1711.938       13.00000    
    1717.178       21.00000    
    1722.418       31.00000    
    1727.658       11.00000    
    1732.898       21.00000    
    1738.139       22.00000    
    1743.379       18.00000    
    1748.619       20.00000    
    1753.859       28.00000    
    1759.100       12.00000    
    1764.340       25.00000    
    1769.580       21.00000    
    1774.820       16.00000    
    1780.061       16.00000    
    1785.301       13.00000    
    1790.541       20.00000    
    1795.781       29.00000    
    1801.021       22.00000    
    1806.262       15.00000    
    1811.502       19.00000    
    1816.742       18.00000    
    1821.982       20.00000    
    1827.223       10.00000    
    1832.463       21.00000    
    1837.703       19.00000    
    1842.943       19.00000    
    1848.184       12.00000    
    1853.424       17.00000    
    1858.664       20.00000    
    1863.904       25.00000    
    1869.145       21.00000    
    1874.385       13.00000    
    1879.625       19.00000    
    1884.865       14.00000    
    1890.105       25.00000    
    1895.346       19.00000    
    1900.586       15.00000    
    1905.826       24.00000    
    1911.066       15.00000    
    1916.307       17.00000    
    1921.547       21.00000    
    1926.787       21.00000    
    1932.027       24.00000    
    1937.268       24.00000    
    1942.508       21.00000    
    1947.748       19.00000    
    1952.988       21.00000    
    1958.229       18.00000    
    1963.469       16.00000    
    1968.709       21.00000    
    1973.949       25.00000    
    1979.189       21.00000    
    1984.430       18.00000    
    1989.670       17.00000    
    1994.910       20.00000    
    2000.150       15.00000    
    2005.391       19.00000    
    2010.631       18.00000    
    2015.871       15.00000    
    2021.111       20.00000    
    2026.352       14.00000    
    2031.592       23.00000    
    2036.832       16.00000    
    2042.072       19.00000    
    2047.313       24.00000    
    2052.553       18.00000    
    2057.793       13.00000    
    2063.033       17.00000    
    2068.273       20.00000    
    2073.514       17.00000    
    2078.754       17.00000    
    2083.994       22.00000    
    2089.234       14.00000    
    2094.475       24.00000    
    2099.715       23.00000    
    2104.955       19.00000    
    2110.195       25.00000    
    2115.436       22.00000    
    2120.676       20.00000    
    2125.916       22.00000    
    2131.156       29.00000    
    2136.396       19.00000    
    2141.637       21.00000    
    2146.877       24.00000    
    2152.117       25.00000    
    2157.357       23.00000    
    2162.598       19.00000    
    2167.838       19.00000    
    2173.078       20.00000    
    2178.318       17.00000    
    2183.559       20.00000    
    2188.799       18.00000    
    2194.039       21.00000    
    2199.279       18.00000    
    2204.520       21.00000    
    2209.760       18.00000    
    2215.000       18.00000    
    2220.240       17.00000    
    2225.480       18.00000    
    2230.721       23.00000    
    2235.961       24.00000    
    2241.201       23.00000    
    2246.442       22.00000    
    2251.682       18.00000    
    2256.922       20.00000    
    2262.162       17.00000    
    2267.403       17.00000    
    2272.643       21.00000    
    2277.883       25.00000    
    2283.123       22.00000    
    2288.364       17.00000    
    2293.604       18.00000    
    2298.844       16.00000    
    2304.084       28.00000    
    2309.324       13.00000    
    2314.565       26.00000    
    2319.805       22.00000    
    2325.045       20.00000    
    2330.285       14.00000    
    2335.526       17.00000    
    2340.766       14.00000    
    2346.006       20.00000    
    2351.246       30.00000    
    2356.487       25.00000    
    2361.727       15.00000    
    2366.967       15.00000    
    2372.207       24.00000    
    2377.448       22.00000    
    2382.688       21.00000    
    2387.928       23.00000    
    2393.168       23.00000    
    2398.408       34.00000    
    2403.649       34.00000    
    2408.889       20.00000    
    2414.129       19.00000    
    2419.369       23.00000    
    2424.610       20.00000    
    2429.850       22.00000    
    2435.090       20.00000    
    2440.330       17.00000    
    2445.571       29.00000    
    2450.811       25.00000    
    2456.051       22.00000    
    2461.291       19.00000    
    2466.531       22.00000    
    2471.772       26.00000    
    2477.012       26.00000    
    2482.252       29.00000    
    2487.492       22.00000    
    2492.733       20.00000    
    2497.973       29.00000    
    2503.213       23.00000    
    2508.453       17.00000    
    2513.694       19.00000    
    2518.934       25.00000    
    2524.174       27.00000    
    2529.414       36.00000    
    2534.655       27.00000    
    2539.895       26.00000    
    2545.135       27.00000    
    2550.375       29.00000    
    2555.615       23.00000    
    2560.856       28.00000    
    2566.096       21.00000    
    2571.336       29.00000    
    2576.576       27.00000    
    2581.817       26.00000    
    2587.057       18.00000    
    2592.297       23.00000    
    2597.537       17.00000    
    2602.778       22.00000    
    2608.018       23.00000    
    2613.258       16.00000    
    2618.498       31.00000    
    2623.739       24.00000    
    2628.979       24.00000    
    2634.219       27.00000    
    2639.459       20.00000    
    2644.699       25.00000    
    2649.940       19.00000    
    2655.180       27.00000    
    2660.420       24.00000    
    2665.660       24.00000    
    2670.901       23.00000    
    2676.141       19.00000    
    2681.381       20.00000    
    2686.621       19.00000    
    2691.862       29.00000    
    2697.102       19.00000    
    2702.342       26.00000    
    2707.582       27.00000    
    2712.823       28.00000    
    2718.063       22.00000    
    2723.303       30.00000    
    2728.543       24.00000    
    2733.783       24.00000    
    2739.024       26.00000    
    2744.264       23.00000    
    2749.504       32.00000    
    2754.744       31.00000    
    2759.985       19.00000    
    2765.225       24.00000    
    2770.465       19.00000    
    2775.705       38.00000    
    2780.946       22.00000    
    2786.186       23.00000    
    2791.426       18.00000    
    2796.666       25.00000    
    2801.906       29.00000    
    2807.147       24.00000    
    2812.387       28.00000    
    2817.627       34.00000    
    2822.867       21.00000    
    2828.108       24.00000    
    2833.348       30.00000    
    2838.588       32.00000    
    2843.828       28.00000    
    2849.069       22.00000    
    2854.309       28.00000    
    2859.549       33.00000    
    2864.789       29.00000    
    2870.030       18.00000    
    2875.270       24.00000    
    2880.510       27.00000    
    2885.750       18.00000    
    2890.990       25.00000    
    2896.231       23.00000    
    2901.471       20.00000    
    2906.711       23.00000    
    2911.951       22.00000    
    2917.192       30.00000    
    2922.432       33.00000    
    2927.672       27.00000    
    2932.912       29.00000    
    2938.153       26.00000    
    2943.393       21.00000    
    2948.633       23.00000    
    2953.873       26.00000    
    2959.114       31.00000    
    2964.354       24.00000    
    2969.594       27.00000    
    2974.834       25.00000    
    2980.074       23.00000    
    2985.315       21.00000    
    2990.555       18.00000    
    2995.795       22.00000    
    3001.035       39.00000    
    3006.276       37.00000    
    3011.516       16.00000    
    3016.756       25.00000    
    3021.996       23.00000    
    3027.237       25.00000    
    3032.477       25.00000    
    3037.717       29.00000    
    3042.957       21.00000    
    3048.198       37.00000    
    3053.438       27.00000    
    3058.678       27.00000    
    3063.918       27.00000    
    3069.158       34.00000    
    3074.399       26.00000    
    3079.639       30.00000    
    3084.879       32.00000    
    3090.119       32.00000    
    3095.360       23.00000    
    3100.600       34.00000    
    3105.840       27.00000    
    3111.080       22.00000    
    3116.321       26.00000    
    3121.561       14.00000    
    3126.801       29.00000    
    3132.042       25.00000    
    3137.282       22.00000    
    3142.522       29.00000    
    3147.762       25.00000    
    3153.002       21.00000    
    3158.243       24.00000    
    3163.483       21.00000    
    3168.723       23.00000    
    3173.963       23.00000    
    3179.204       25.00000    
    3184.444       28.00000    
    3189.684       32.00000    
    3194.924       31.00000    
    3200.165       27.00000    
    3205.405       34.00000    
    3210.645       32.00000    
    3215.885       33.00000    
    3221.125       33.00000    
    3226.366       27.00000    
    3231.606       36.00000    
    3236.846       23.00000    
    3242.086       20.00000    
    3247.327       26.00000    
    3252.567       32.00000    
    3257.807       30.00000    
    3263.047       35.00000    
    3268.288       23.00000    
    3273.528       25.00000    
    3278.768       22.00000    
    3284.008       39.00000    
    3289.249       32.00000    
    3294.489       28.00000    
    3299.729       34.00000    
    3304.969       33.00000    
    3310.209       21.00000    
    3315.450       30.00000    
    3320.690       34.00000    
    3325.930       21.00000    
    3331.170       31.00000    
    3336.411       40.00000    
    3341.651       34.00000    
    3346.891       33.00000    
    3352.131       30.00000    
    3357.372       30.00000    
    3362.612       28.00000    
    3367.852       32.00000    
    3373.092       32.00000    
    3378.333       18.00000    
    3383.573       24.00000    
    3388.813       29.00000    
    3394.053       38.00000    
    3399.293       28.00000    
    3404.534       34.00000    
    3409.774       32.00000    
    3415.014       32.00000    
    3420.254       33.00000    
    3425.495       29.00000    
    3430.735       30.00000    
    3435.975       26.00000    
    3441.215       24.00000    
    3446.456       35.00000    
    3451.696       30.00000    
    3456.936       23.00000    
    3462.176       27.00000    
    3467.417       40.00000    
    3472.657       28.00000    
    3477.897       34.00000    
    3483.137       34.00000    
    3488.377       40.00000    
    3493.618       26.00000    
    3498.858       31.00000    
    3504.098       39.00000    
    3509.338       35.00000    
    3514.579       24.00000    
    3519.819       32.00000    
    3525.059       33.00000    
    3530.299       28.00000    
    3535.540       28.00000    
    3540.780       46.00000    
    3546.020       39.00000    
    3551.260       37.00000    
    3556.500       32.00000    
    3561.741       33.00000    
    3566.981       41.00000    
    3572.221       38.00000    
    3577.461       26.00000    
    3582.702       29.00000    
    3587.942       35.00000    
    3593.182       27.00000    
    3598.422       35.00000    
    3603.663       31.00000    
    3608.903       36.00000    
    3614.143       33.00000    
    3619.383       28.00000    
    3624.624       35.00000    
    3629.864       33.00000    
    3635.104       29.00000    
    3640.344       36.00000    
    3645.584       25.00000    
    3650.825       34.00000    
    3656.065       43.00000    
    3661.305       37.00000    
    3666.545       38.00000    
    3671.786       43.00000    
    3677.026       39.00000    
    3682.266       40.00000    
    3687.506       34.00000    
    3692.747       42.00000    
    3697.987       32.00000    
    3703.227       46.00000    
    3708.467       29.00000    
    3713.708       25.00000    
    3718.948       28.00000    
    3724.188       28.00000    
    3729.428       35.00000    
    3734.668       38.00000    
    3739.909       48.00000    
    3745.149       33.00000    
    3750.389       33.00000    
    3755.629       32.00000    
    3760.870       29.00000    
    3766.110       38.00000    
    3771.350       32.00000    
    3776.590       43.00000    
    3781.831       43.00000    
    3787.071       37.00000    
    3792.311       32.00000    
    3797.551       36.00000    
    3802.792       31.00000    
    3808.032       28.00000    
    3813.272       44.00000    
    3818.512       27.00000    
    3823.752       26.00000    
    3828.993       36.00000    
    3834.233       32.00000    
    3839.473       39.00000    
    3844.713       38.00000    
    3849.954       34.00000    
    3855.194       43.00000    
    3860.434       31.00000    
    3865.674       43.00000    
    3870.915       39.00000    
    3876.155       37.00000    
    3881.395       47.00000    
    3886.635       35.00000    
    3891.875       29.00000    
    3897.116       44.00000    
    3902.356       42.00000    
    3907.596       36.00000    
    3912.836       43.00000    
    3918.077       47.00000    
    3923.317       33.00000    
    3928.557       37.00000    
    3933.797       50.00000    
    3939.038       29.00000    
    3944.278       36.00000    
    3949.518       42.00000    
    3954.758       49.00000    
    3959.999       33.00000    
    3965.239       51.00000    
    3970.479       46.00000    
    3975.719       33.00000    
    3980.959       29.00000    
    3986.200       34.00000    
    3991.440       46.00000    
    3996.680       35.00000    
    4001.920       45.00000    
    4007.161       32.00000    
    4012.401       44.00000    
    4017.641       41.00000    
    4022.882       34.00000    
    4028.122       38.00000    
    4033.362       44.00000    
    4038.602       49.00000    
    4043.843       40.00000    
    4049.083       38.00000    
    4054.323       37.00000    
    4059.563       31.00000    
    4064.803       31.00000    
    4070.044       48.00000    
    4075.284       45.00000    
    4080.524       39.00000    
    4085.764       49.00000    
    4091.005       47.00000    
    4096.245       48.00000    
    4101.485       45.00000    
    4106.725       42.00000    
    4111.965       54.00000    
    4117.206       45.00000    
    4122.446       40.00000    
    4127.686       47.00000    
    4132.926       44.00000    
    4138.167       37.00000    
    4143.407       40.00000    
    4148.647       50.00000    
    4153.887       40.00000    
    4159.127       49.00000    
    4164.368       47.00000    
    4169.608       36.00000    
    4174.848       32.00000    
    4180.088       38.00000    
    4185.329       46.00000    
    4190.569       53.00000    
    4195.809       50.00000    
    4201.049       41.00000    
    4206.290       42.00000    
    4211.530       44.00000    
    4216.770       34.00000    
    4222.010       41.00000    
    4227.250       38.00000    
    4232.491       40.00000    
    4237.731       47.00000    
    4242.971       44.00000    
    4248.211       42.00000    
    4253.452       44.00000    
    4258.692       58.00000    
    4263.932       55.00000    
    4269.172       47.00000    
    4274.413       32.00000    
    4279.653       43.00000    
    4284.893       54.00000    
    4290.133       43.00000    
    4295.374       39.00000    
    4300.614       45.00000    
    4305.854       41.00000    
    4311.094       40.00000    
    4316.334       39.00000    
    4321.575       58.00000    
    4326.815       43.00000    
    4332.055       66.00000    
    4337.295       45.00000    
    4342.536       58.00000    
    4347.776       46.00000    
    4353.016       46.00000    
    4358.256       57.00000    
    4363.497       45.00000    
    4368.737       52.00000    
    4373.977       47.00000    
    4379.217       54.00000    
    4384.458       60.00000    
    4389.698       50.00000    
    4394.938       43.00000    
    4400.178       41.00000    
    4405.418       53.00000    
    4410.659       58.00000    
    4415.899       41.00000    
    4421.139       59.00000    
    4426.379       47.00000    
    4431.620       55.00000    
    4436.860       53.00000    
    4442.100       45.00000    
    4447.340       51.00000    
    4452.581       57.00000    
    4457.821       51.00000    
    4463.061       48.00000    
    4468.302       60.00000    
    4473.542       60.00000    
    4478.782       65.00000    
    4484.022       54.00000    
    4489.263       54.00000    
    4494.503       45.00000    
    4499.743       57.00000    
    4504.983       43.00000    
    4510.224       46.00000    
    4515.464       56.00000    
    4520.704       57.00000    
    4525.944       42.00000    
    4531.185       65.00000    
    4536.425       53.00000    
    4541.665       71.00000    
    4546.905       44.00000    
    4552.146       56.00000    
    4557.386       54.00000    
    4562.626       57.00000    
    4567.866       52.00000    
    4573.106       60.00000    
    4578.347       45.00000    
    4583.587       55.00000    
    4588.827       75.00000    
    4594.067       61.00000    
    4599.308       57.00000    
    4604.548       52.00000    
    4609.788       61.00000    
    4615.028       57.00000    
    4620.269       63.00000    
    4625.509       57.00000    
    4630.749       75.00000    
    4635.989       48.00000    
    4641.229       44.00000    
    4646.470       60.00000    
    4651.710       42.00000    
    4656.950       65.00000    
    4662.190       64.00000    
    4667.431       56.00000    
    4672.671       69.00000    
    4677.911       60.00000    
    4683.151       64.00000    
    4688.392       71.00000    
    4693.632       78.00000    
    4698.872       61.00000    
    4704.112       62.00000    
    4709.353       74.00000    
    4714.593       71.00000    
    4719.833       62.00000    
    4725.073       61.00000    
    4730.313       63.00000    
    4735.554       65.00000    
    4740.794       74.00000    
    4746.034       64.00000    
    4751.274       75.00000    
    4756.515       76.00000    
    4761.755       54.00000    
    4766.995       58.00000    
    4772.235       60.00000    
    4777.476       66.00000    
    4782.716       64.00000    
    4787.956       84.00000    
    4793.196       69.00000    
    4798.437       58.00000    
    4803.677       74.00000    
    4808.917       74.00000    
    4814.157       70.00000    
    4819.397       70.00000    
    4824.638       84.00000    
    4829.878       64.00000    
    4835.118       65.00000    
    4840.358       70.00000    
    4845.599       82.00000    
    4850.839       69.00000    
    4856.079       74.00000    
    4861.319       71.00000    
    4866.560       55.00000    
    4871.800       61.00000    
    4877.040       84.00000    
    4882.280       72.00000    
    4887.521       77.00000    
    4892.761       84.00000    
    4898.001       86.00000    
    4903.241       80.00000    
    4908.481       80.00000    
    4913.722       83.00000    
    4918.962       67.00000    
    4924.202       72.00000    
    4929.442       78.00000    
    4934.683       84.00000    
    4939.923       85.00000    
    4945.163       64.00000    
    4950.403       83.00000    
    4955.644       82.00000    
    4960.884       62.00000    
    4966.124       68.00000    
    4971.364       90.00000    
    4976.604       103.0000    
    4981.845       69.00000    
    4987.085       92.00000    
    4992.325       91.00000    
    4997.565       76.00000    
    5002.806       103.0000    
    5008.046       95.00000    
    5013.286       77.00000    
    5018.526       81.00000    
    5023.767       87.00000    
    5029.007       92.00000    
    5034.247       111.0000    
    5039.487       85.00000    
    5044.728       108.0000    
    5049.968       111.0000    
    5055.208       99.00000    
    5060.448       91.00000    
    5065.688       98.00000    
    5070.929       105.0000    
    5076.169       94.00000    
    5081.409       94.00000    
    5086.649       85.00000    
    5091.890       103.0000    
    5097.130       82.00000    
    5102.370       108.0000    
    5107.610       100.0000    
    5112.851       92.00000    
    5118.091       107.0000    
    5123.331       102.0000    
    5128.571       90.00000    
    5133.812       91.00000    
    5139.052       99.00000    
    5144.292       96.00000    
    5149.532       111.0000    
    5154.772       95.00000    
    5160.013       112.0000    
    5165.253       111.0000    
    5170.493       94.00000    
    5175.733       115.0000    
    5180.974       114.0000    
    5186.214       116.0000    
    5191.454       110.0000    
    5196.694       127.0000    
    5201.935       105.0000    
    5207.175       108.0000    
    5212.415       98.00000    
    5217.655       108.0000    
    5222.896       112.0000    
    5228.136       128.0000    
    5233.376       135.0000    
    5238.616       111.0000    
    5243.856       138.0000    
    5249.097       123.0000    
    5254.337       136.0000    
    5259.577       130.0000    
    5264.817       126.0000    
    5270.058       136.0000    
    5275.298       143.0000    
    5280.538       134.0000    
    5285.778       142.0000    
    5291.019       139.0000    
    5296.259       136.0000    
    5301.499       153.0000    
    5306.739       123.0000    
    5311.979       121.0000    
    5317.220       133.0000    
    5322.460       127.0000    
    5327.700       143.0000    
    5332.940       143.0000    
    5338.181       155.0000    
    5343.421       146.0000    
    5348.661       147.0000    
    5353.901       140.0000    
    5359.142       151.0000    
    5364.382       175.0000    
    5369.622       170.0000    
    5374.862       203.0000    
    5380.103       203.0000    
    5385.343       258.0000    
    5390.583       342.0000    
    5395.823       451.0000    
    5401.063       565.0000    
    5406.304       758.0000    
    5411.544       932.0000    
    5416.784       1370.000    
    5422.024       1660.000    
    5427.265       2230.000    
    5432.505       2744.000    
    5437.745       3390.000    
    5442.985       3479.000    
    5448.226       3190.000    
    5453.466       2448.000    
    5458.706       1690.000    
    5463.946       983.0000    
    5469.187       502.0000    
    5474.427       352.0000    
    5479.667       288.0000    
    5484.907       233.0000    
    5490.147       211.0000    
    5495.388       224.0000    
    5500.628       247.0000    
    5505.868       271.0000    
    5511.108       230.0000    
    5516.349       260.0000    
    5521.589       272.0000    
    5526.829       246.0000    
    5532.069       261.0000    
    5537.310       285.0000    
    5542.550       296.0000    
    5547.790       301.0000    
    5553.030       364.0000    
    5558.271       388.0000    
    5563.511       367.0000    
    5568.751       410.0000    
    5573.991       479.0000    
    5579.231       501.0000    
    5584.472       596.0000    
    5589.712       667.0000    
    5594.952       762.0000    
    5600.192       790.0000    
    5605.433       969.0000    
    5610.673       1193.000    
    5615.913       1604.000    
    5621.153       2261.000    
    5626.394       3351.000    
    5631.634       4885.000    
    5636.874       7273.000    
    5642.114       10703.00    
    5647.354       15035.00    
    5652.595       20978.00    
    5657.835       29510.00    
    5663.075       39558.00    
    5668.315       51971.00    
    5673.556       63477.00    
    5678.796       69360.00    
    5684.036       66472.00    
    5689.276       53779.00    
    5694.517       36735.00    
    5699.757       20587.00    
    5704.997       9246.000    
    5710.237       3574.000    
    5715.478       1163.000    
    5720.718       452.0000    
    5725.958       281.0000    
    5731.198       327.0000    
    5736.438       329.0000    
    5741.679       351.0000    
    5746.919       361.0000    
    5752.159       452.0000    
    5757.399       420.0000    
    5762.640       420.0000    
    5767.880       404.0000    
    5773.120       380.0000    
    5778.360       322.0000    
    5783.601       300.0000    
    5788.841       244.0000    
    5794.081       210.0000    
    5799.321       189.0000    
    5804.562       184.0000    
    5809.802       194.0000    
    5815.042       160.0000    
    5820.282       162.0000    
    5825.522       148.0000    
    5830.763       176.0000    
    5836.003       182.0000    
    5841.243       138.0000    
    5846.483       162.0000    
    5851.724       160.0000    
    5856.964       173.0000    
    5862.204       190.0000    
    5867.444       161.0000    
    5872.685       182.0000    
    5877.925       187.0000    
    5883.165       205.0000    
    5888.405       182.0000    
    5893.646       220.0000    
    5898.886       202.0000    
    5904.126       247.0000    
    5909.366       212.0000    
    5914.606       250.0000    
    5919.847       239.0000    
    5925.087       291.0000    
    5930.327       271.0000    
    5935.567       318.0000    
    5940.808       314.0000    
    5946.048       337.0000    
    5951.288       402.0000    
    5956.528       450.0000    
    5961.769       519.0000    
    5967.009       591.0000    
    5972.249       723.0000    
    5977.489       911.0000    
    5982.729       1103.000    
    5987.970       1281.000    
    5993.210       1681.000    
    5998.450       2171.000    
    6003.690       2752.000    
    6008.931       3428.000    
    6014.171       4301.000    
    6019.411       5351.000    
    6024.651       6879.000    
    6029.892       8562.000    
    6035.132       10545.00    
    6040.372       11758.00    
    6045.612       12854.00    
    6050.853       12947.00    
    6056.093       12575.00    
    6061.333       11890.00    
    6066.573       11362.00    
    6071.813       10488.00    
    6077.054       9565.000    
    6082.294       8831.000    
    6087.534       7449.000    
    6092.774       5875.000    
    6098.015       4101.000    
    6103.255       2830.000    
    6108.495       1577.000    
    6113.735       956.0000    
    6118.976       580.0000    
    6124.216       369.0000    
    6129.456       235.0000    
    6134.696       224.0000    
    6139.937       215.0000    
    6145.177       214.0000    
    6150.417       197.0000    
    6155.657       218.0000    
    6160.897       236.0000    
    6166.138       241.0000    
    6171.378       313.0000    
    6176.618       306.0000    
    6181.858       361.0000    
    6187.099       411.0000    
    6192.339       495.0000    
    6197.579       590.0000    
    6202.819       723.0000    
    6208.060       939.0000    
    6213.300       1133.000    
    6218.540       1512.000    
    6223.780       2220.000    
    6229.021       3010.000    
    6234.261       4340.000    
    6239.501       5873.000    
    6244.741       8282.000    
    6249.981       11317.00    
    6255.222       14863.00    
    6260.462       19734.00    
    6265.703       26050.00    
    6270.943       32984.00    
    6276.183       39084.00    
    6281.423       41578.00    
    6286.664       39173.00    
    6291.904       31842.00    
    6297.144       22068.00    
    6302.384       12818.00    
    6307.625       6124.000    
    6312.865       2334.000    
    6318.105       845.0000    
    6323.345       274.0000    
    6328.585       117.0000    
    6333.826       93.00000    
    6339.066       89.00000    
    6344.306       88.00000    
    6349.546       98.00000    
    6354.787       82.00000    
    6360.027       106.0000    
    6365.267       95.00000    
    6370.507       78.00000    
    6375.748       82.00000    
    6380.988       88.00000    
    6386.228       94.00000    
    6391.468       96.00000    
    6396.708       97.00000    
    6401.949       102.0000    
    6407.189       114.0000    
    6412.429       132.0000    
    6417.669       105.0000    
    6422.910       98.00000    
    6428.150       112.0000    
    6433.390       88.00000    
    6438.630       95.00000    
    6443.871       110.0000    
    6449.111       95.00000    
    6454.351       89.00000    
    6459.591       121.0000    
    6464.832       113.0000    
    6470.072       96.00000    
    6475.312       109.0000    
    6480.552       110.0000    
    6485.792       108.0000    
    6491.033       139.0000    
    6496.273       118.0000    
    6501.513       110.0000    
    6506.753       129.0000    
    6511.994       139.0000    
    6517.234       143.0000    
    6522.474       130.0000    
    6527.714       132.0000    
    6532.955       146.0000    
    6538.195       150.0000    
    6543.435       169.0000    
    6548.675       179.0000    
    6553.916       167.0000    
    6559.156       169.0000    
    6564.396       167.0000    
    6569.636       183.0000    
    6574.876       170.0000    
    6580.117       209.0000    
    6585.357       199.0000    
    6590.597       212.0000    
    6595.837       223.0000    
    6601.078       236.0000    
    6606.318       261.0000    
    6611.558       268.0000    
    6616.798       275.0000    
    6622.039       308.0000    
    6627.279       298.0000    
    6632.519       317.0000    
    6637.759       317.0000    
    6643.000       329.0000    
    6648.240       344.0000    
    6653.480       358.0000    
    6658.720       437.0000    
    6663.960       433.0000    
    6669.201       518.0000    
    6674.441       577.0000    
    6679.681       683.0000    
    6684.921       772.0000    
    6690.162       938.0000    
    6695.402       1089.000    
    6700.642       1404.000    
    6705.882       1829.000    
    6711.123       2317.000    
    6716.363       2977.000    
    6721.603       4017.000    
    6726.843       5201.000    
    6732.083       6964.000    
    6737.324       9343.000    
    6742.564       12606.00    
    6747.804       16135.00    
    6753.044       21131.00    
    6758.285       26653.00    
    6763.525       32260.00    
    6768.765       37105.00    
    6774.005       38750.00    
    6779.246       36404.00    
    6784.486       30160.00    
    6789.726       22088.00    
    6794.966       13772.00    
    6800.207       7282.000    
    6805.447       3330.000    
    6810.687       1410.000    
    6815.927       501.0000    
    6821.167       173.0000    
    6826.408       76.00000    
    6831.648       51.00000    
    6836.888       37.00000    
    6842.128       17.00000    
    6847.369       20.00000    
    6852.609       13.00000    
    6857.849       21.00000    
    6863.089       10.00000    
    6868.330       11.00000    
    6873.570       6.000000    
    6878.810       12.00000    
    6884.050       11.00000    
    6889.291       14.00000    
    6894.531       16.00000    
    6899.771       11.00000    
    6905.011       12.00000    
    6910.251       11.00000    
    6915.492       13.00000    
    6920.732       16.00000    
    6925.972       10.00000    
    6931.212       9.000000    
    6936.453       9.000000    
    6941.693       11.00000    
    6946.933       11.00000    
    6952.173       17.00000    
    6957.414       20.00000    
    6962.654       10.00000    
    6967.894       14.00000    
    6973.134       7.000000    
    6978.375       16.00000    
    6983.615       17.00000    
    6988.855       19.00000    
    6994.095       18.00000    
    6999.335       9.000000    
    7004.576       16.00000    
    7009.816       7.000000    
    7015.056       13.00000    
    7020.296       7.000000    
    7025.537       16.00000    
    7030.777       12.00000    
    7036.017       19.00000    
    7041.257       8.000000    
    7046.498       15.00000    
    7051.738       12.00000    
    7056.978       16.00000    
    7062.218       11.00000    
    7067.458       15.00000    
    7072.699       9.000000    
    7077.939       18.00000    
    7083.179       13.00000    
    7088.419       23.00000    
    7093.660       12.00000    
    7098.900       14.00000    
    7104.140       14.00000    
    7109.380       26.00000    
    7114.621       19.00000    
    7119.861       13.00000    
    7125.101       17.00000    
    7130.341       10.00000    
    7135.582       17.00000    
    7140.822       21.00000    
    7146.062       17.00000    
    7151.302       13.00000    
    7156.542       14.00000    
    7161.783       10.00000    
    7167.023       14.00000    
    7172.263       7.000000    
    7177.503       18.00000    
    7182.744       22.00000    
    7187.984       16.00000    
    7193.224       18.00000    
    7198.464       10.00000    
    7203.705       17.00000    
    7208.945       23.00000    
    7214.185       15.00000    
    7219.425       17.00000    
    7224.666       18.00000    
    7229.906       13.00000    
    7235.146       15.00000    
    7240.386       10.00000    
    7245.626       17.00000    
    7250.867       20.00000    
    7256.107       9.000000    
    7261.347       16.00000    
    7266.587       19.00000    
    7271.828       22.00000    
    7277.068       18.00000    
    7282.308       21.00000    
    7287.548       20.00000    
    7292.789       20.00000    
    7298.029       27.00000    
    7303.269       19.00000    
    7308.509       13.00000    
    7313.750       22.00000    
    7318.990       21.00000    
    7324.230       24.00000    
    7329.470       18.00000    
    7334.710       18.00000    
    7339.951       23.00000    
    7345.191       30.00000    
    7350.431       40.00000    
    7355.671       51.00000    
    7360.912       67.00000    
    7366.152       48.00000    
    7371.392       70.00000    
    7376.632       69.00000    
    7381.873       73.00000    
    7387.113       73.00000    
    7392.353       69.00000    
    7397.593       48.00000    
    7402.833       35.00000    
    7408.074       26.00000    
    7413.314       21.00000    
    7418.554       18.00000    
    7423.794       16.00000    
    7429.035       10.00000    
    7434.275       23.00000    
    7439.515       9.000000    
    7444.755       19.00000    
    7449.996       13.00000    
    7455.236       24.00000    
    7460.476       19.00000    
    7465.716       21.00000    
    7470.957       18.00000    
    7476.197       19.00000    
    7481.437       17.00000    
    7486.677       12.00000    
    7491.917       19.00000    
    7497.158       13.00000    
    7502.398       20.00000    
    7507.638       16.00000    
    7512.878       20.00000    
    7518.119       11.00000    
    7523.359       18.00000    
    7528.599       17.00000    
    7533.839       21.00000    
    7539.080       21.00000    
    7544.320       15.00000    
    7549.560       10.00000    
    7554.800       20.00000    
    7560.041       23.00000    
    7565.281       19.00000    
    7570.521       16.00000    
    7575.761       21.00000    
    7581.001       14.00000    
    7586.242       21.00000    
    7591.482       12.00000    
    7596.722       17.00000    
    7601.962       12.00000    
    7607.203       17.00000    
    7612.443       18.00000    
    7617.683       20.00000    
    7622.923       20.00000    
    7628.164       15.00000    
    7633.404       14.00000    
    7638.644       19.00000    
    7643.884       19.00000    
    7649.125       28.00000    
    7654.365       15.00000    
    7659.605       22.00000    
    7664.845       21.00000    
    7670.085       15.00000    
    7675.326       25.00000    
    7680.566       15.00000    
    7685.806       14.00000    
    7691.046       20.00000    
    7696.287       23.00000    
    7701.527       29.00000    
    7706.767       19.00000    
    7712.007       19.00000    
    7717.248       19.00000    
    7722.488       21.00000    
    7727.728       15.00000    
    7732.968       11.00000    
    7738.208       18.00000    
    7743.449       28.00000    
    7748.689       27.00000    
    7753.929       14.00000    
    7759.169       18.00000    
    7764.410       23.00000    
    7769.650       24.00000    
    7774.890       25.00000    
    7780.130       20.00000    
    7785.371       30.00000    
    7790.611       30.00000    
    7795.851       19.00000    
    7801.091       27.00000    
    7806.332       21.00000    
    7811.572       22.00000    
    7816.812       27.00000    
    7822.052       30.00000    
    7827.292       41.00000    
    7832.533       18.00000    
    7837.773       19.00000    
    7843.013       28.00000    
    7848.253       21.00000    
    7853.494       26.00000    
    7858.734       25.00000    
    7863.974       22.00000    
    7869.214       13.00000    
    7874.455       25.00000    
    7879.695       24.00000    
    7884.935       26.00000    
    7890.175       28.00000    
    7895.416       18.00000    
    7900.656       18.00000    
    7905.896       33.00000    
    7911.136       27.00000    
    7916.376       29.00000    
    7921.617       21.00000    
    7926.857       31.00000    
    7932.097       29.00000    
    7937.337       20.00000    
    7942.578       27.00000    
    7947.818       29.00000    
    7953.058       25.00000    
    7958.298       35.00000    
    7963.539       23.00000    
    7968.779       28.00000    
    7974.019       39.00000    
    7979.259       25.00000    
    7984.500       27.00000    
    7989.740       37.00000    
    7994.980       32.00000    
    8000.220       31.00000    
    8005.460       22.00000    
    8010.701       33.00000    
    8015.941       32.00000    
    8021.181       34.00000    
    8026.421       30.00000    
    8031.662       28.00000    
    8036.902       30.00000    
    8042.142       28.00000    
    8047.383       29.00000    
    8052.623       36.00000    
    8057.863       40.00000    
    8063.104       31.00000    
    8068.344       36.00000    
    8073.584       37.00000    
    8078.824       36.00000    
    8084.064       32.00000    
    8089.305       40.00000    
    8094.545       24.00000    
    8099.785       33.00000    
    8105.025       40.00000    
    8110.266       26.00000    
    8115.506       28.00000    
    8120.746       32.00000    
    8125.986       35.00000    
    8131.227       39.00000    
    8136.467       42.00000    
    8141.707       38.00000    
    8146.947       44.00000    
    8152.188       42.00000    
    8157.428       41.00000    
    8162.668       49.00000    
    8167.908       38.00000    
    8173.148       38.00000    
    8178.389       44.00000    
    8183.629       40.00000    
    8188.869       47.00000    
    8194.108       32.00000    
    8199.349       41.00000    
    8204.589       34.00000    
    8209.829       45.00000    
    8215.069       35.00000    
    8220.310       36.00000    
    8225.550       39.00000    
    8230.790       40.00000    
    8236.030       44.00000    
    8241.271       50.00000    
    8246.511       44.00000    
    8251.751       38.00000    
    8256.991       41.00000    
    8262.231       57.00000    
    8267.472       44.00000    
    8272.712       47.00000    
    8277.952       47.00000    
    8283.192       40.00000    
    8288.433       61.00000    
    8293.673       40.00000    
    8298.913       59.00000    
    8304.153       53.00000    
    8309.394       52.00000    
    8314.634       59.00000    
    8319.874       45.00000    
    8325.114       47.00000    
    8330.354       54.00000    
    8335.595       47.00000    
    8340.835       70.00000    
    8346.075       55.00000    
    8351.315       61.00000    
    8356.556       49.00000    
    8361.796       65.00000    
    8367.036       71.00000    
    8372.276       59.00000    
    8377.517       59.00000    
    8382.757       53.00000    
    8387.997       65.00000    
    8393.237       68.00000    
    8398.478       56.00000    
    8403.718       58.00000    
    8408.958       63.00000    
    8414.198       53.00000    
    8419.438       66.00000    
    8424.679       62.00000    
    8429.919       72.00000    
    8435.159       57.00000    
    8440.399       63.00000    
    8445.640       72.00000    
    8450.880       53.00000    
    8456.120       68.00000    
    8461.360       84.00000    
    8466.601       77.00000    
    8471.841       64.00000    
    8477.081       77.00000    
    8482.321       84.00000    
    8487.562       90.00000    
    8492.802       68.00000    
    8498.042       81.00000    
    8503.282       75.00000    
    8508.522       76.00000    
    8513.763       79.00000    
    8519.003       96.00000    
    8524.243       78.00000    
    8529.483       88.00000    
    8534.724       86.00000    
    8539.964       97.00000    
    8545.204       84.00000    
    8550.444       108.0000    
    8555.685       94.00000    
    8560.925       102.0000    
    8566.165       83.00000    
    8571.405       94.00000    
    8576.646       108.0000    
    8581.886       102.0000    
    8587.126       108.0000    
    8592.366       104.0000    
    8597.606       123.0000    
    8602.847       120.0000    
    8608.087       113.0000    
    8613.327       108.0000    
    8618.567       133.0000    
    8623.808       131.0000    
    8629.048       127.0000    
    8634.288       157.0000    
    8639.528       166.0000    
    8644.769       178.0000    
    8650.009       171.0000    
    8655.249       186.0000    
    8660.489       226.0000    
    8665.729       246.0000    
    8670.970       230.0000    
    8676.210       245.0000    
    8681.450       262.0000    
    8686.690       306.0000    
    8691.931       342.0000    
    8697.171       390.0000    
    8702.411       504.0000    
    8707.651       595.0000    
    8712.892       737.0000    
    8718.132       873.0000    
    8723.372       1144.000    
    8728.612       1544.000    
    8733.853       2044.000    
    8739.093       2783.000    
    8744.333       3837.000    
    8749.573       5149.000    
    8754.813       6987.000    
    8760.054       9415.000    
    8765.294       12635.00    
    8770.534       15794.00    
    8775.774       19316.00    
    8781.015       21725.00    
    8786.255       22139.00    
    8791.495       19943.00    
    8796.735       16077.00    
    8801.976       11002.00    
    8807.216       7291.000    
    8812.456       4362.000    
    8817.696       2720.000    
    8822.937       1898.000    
    8828.177       1548.000    
    8833.417       1325.000    
    8838.657       1313.000    
    8843.897       1263.000    
    8849.138       1254.000    
    8854.378       1341.000    
    8859.618       1320.000    
    8864.858       1396.000    
    8870.099       1584.000    
    8875.339       1616.000    
    8880.579       1744.000    
    8885.819       1804.000    
    8891.060       2024.000    
    8896.300       2214.000    
    8901.540       2232.000    
    8906.780       2381.000    
    8912.021       2442.000    
    8917.261       2345.000    
    8922.501       2414.000    
    8927.741       2498.000    
    8932.981       2377.000    
    8938.222       2261.000    
    8943.463       2226.000    
    8948.703       2146.000    
    8953.943       2182.000    
    8959.184       2082.000    
    8964.424       2033.000    
    8969.664       1957.000    
    8974.904       1944.000    
    8980.145       1828.000    
    8985.385       1808.000    
    8990.625       1765.000    
    8995.865       1650.000    
    9001.105       1659.000    
    9006.346       1690.000    
    9011.586       1711.000    
    9016.826       1532.000    
    9022.066       1476.000    
    9027.307       1484.000    
    9032.547       1459.000    
    9037.787       1415.000    
    9043.027       1449.000    
    9048.268       1352.000    
    9053.508       1383.000    
    9058.748       1341.000    
    9063.988       1356.000    
    9069.229       1327.000    
    9074.469       1228.000    
    9079.709       1225.000    
    9084.949       1223.000    
    9090.189       1216.000    
    9095.430       1216.000    
    9100.670       1170.000    
    9105.910       1064.000    
    9111.150       1132.000    
    9116.391       1135.000    
    9121.631       1022.000    
    9126.871       1102.000    
    9132.111       1020.000    
    9137.352       1020.000    
    9142.592       962.0000    
    9147.832       987.0000    
    9153.072       900.0000    
    9158.313       948.0000    
    9163.553       880.0000    
    9168.793       923.0000    
    9174.033       850.0000    
    9179.273       828.0000    
    9184.514       843.0000    
    9189.754       776.0000    
    9194.994       793.0000    
    9200.234       711.0000    
    9205.475       746.0000    
    9210.715       803.0000    
    9215.955       728.0000    
    9221.195       703.0000    
    9226.436       673.0000    
    9231.676       634.0000    
    9236.916       645.0000    
    9242.156       599.0000    
    9247.396       571.0000    
    9252.637       541.0000    
    9257.877       588.0000    
    9263.117       570.0000    
    9268.357       535.0000    
    9273.598       530.0000    
    9278.838       523.0000    
    9284.078       531.0000    
    9289.318       480.0000    
    9294.559       490.0000    
    9299.799       453.0000    
    9305.039       443.0000    
    9310.279       441.0000    
    9315.520       444.0000    
    9320.760       432.0000    
    9326.000       431.0000    
    9331.240       376.0000    
    9336.480       390.0000    
    9341.721       330.0000    
    9346.961       346.0000    
    9352.201       340.0000    
    9357.441       338.0000    
    9362.682       356.0000    
    9367.922       320.0000    
    9373.162       333.0000    
    9378.402       299.0000    
    9383.643       280.0000    
    9388.883       281.0000    
    9394.123       265.0000    
    9399.363       266.0000    
    9404.604       259.0000    
    9409.844       250.0000    
    9415.084       258.0000    
    9420.324       263.0000    
    9425.564       223.0000    
    9430.805       213.0000    
    9436.045       198.0000    
    9441.285       237.0000    
    9446.525       209.0000    
    9451.766       188.0000    
    9457.006       180.0000    
    9462.246       191.0000    
    9467.486       166.0000    
    9472.727       176.0000    
    9477.967       160.0000    
    9483.207       174.0000    
    9488.447       157.0000    
    9493.688       162.0000    
    9498.928       155.0000    
    9504.168       156.0000    
    9509.408       142.0000    
    9514.648       136.0000    
    9519.889       140.0000    
    9525.129       133.0000    
    9530.369       126.0000    
    9535.609       122.0000    
    9540.850       107.0000    
    9546.090       123.0000    
    9551.330       123.0000    
    9556.570       112.0000    
    9561.811       121.0000    
    9567.051       115.0000    
    9572.291       100.0000    
    9577.531       76.00000    
    9582.771       79.00000    
    9588.012       68.00000    
    9593.252       89.00000    
    9598.492       76.00000    
    9603.732       74.00000    
    9608.973       93.00000    
    9614.213       84.00000    
    9619.453       62.00000    
    9624.693       68.00000    
    9629.934       65.00000    
    9635.174       59.00000    
    9640.414       51.00000    
    9645.654       60.00000    
    9650.895       39.00000    
    9656.135       77.00000    
    9661.375       53.00000    
    9666.615       46.00000    
    9671.855       61.00000    
    9677.096       51.00000    
    9682.336       40.00000    
    9687.576       46.00000    
    9692.816       43.00000    
    9698.057       37.00000    
    9703.297       37.00000    
    9708.537       47.00000    
    9713.777       40.00000    
    9719.018       52.00000    
    9724.258       39.00000    
    9729.498       36.00000    
    9734.738       35.00000    
    9739.979       33.00000    
    9745.219       34.00000    
    9750.459       27.00000    
    9755.699       27.00000    
    9760.939       21.00000    
    9766.180       40.00000    
    9771.420       21.00000    
    9776.660       28.00000    
    9781.900       28.00000    
    9787.141       20.00000    
    9792.381       17.00000    
    9797.621       21.00000    
    9802.861       15.00000    
    9808.102       20.00000    
    9813.342       17.00000    
    9818.582       20.00000    
    9823.822       16.00000    
    9829.063       14.00000    
    9834.303       13.00000    
    9839.543       20.00000    
    9844.783       8.000000    
    9850.023       12.00000    
    9855.264       15.00000    
    9860.504       16.00000    
    9865.744       16.00000    
    9870.984       10.00000    
    9876.225       21.00000    
    9881.465       9.000000    
    9886.705       13.00000    
    9891.945       10.00000    
    9897.186       15.00000    
    9902.426       7.000000    
    9907.666       12.00000    
    9912.906       11.00000    
    9918.146       5.000000    
    9923.387       10.00000    
    9928.627       7.000000    
    9933.867       6.000000    
    9939.107       8.000000    
    9944.348       11.00000    
    9949.588       8.000000    
    9954.828       8.000000    
    9960.068       9.000000    
    9965.309       6.000000    
    9970.549       10.00000    
    9975.789       8.000000    
    9981.029       2.000000    
    9986.270       5.000000    
    9991.510       11.00000    
    9996.750       5.000000    
    10001.99       9.000000    
    10007.23       5.000000    
    10012.47       8.000000    
    10017.71       1.000000    
    10022.95       6.000000    
    10028.19       6.000000    
    10033.43       8.000000    
    10038.67       3.000000    
    10043.91       6.000000    
    10049.15       6.000000    
    10054.39       2.000000    
    10059.63       3.000000    
    10064.87       5.000000    
    10070.11       4.000000    
    10075.35       7.000000    
    10080.59       4.000000    
    10085.83       2.000000    
    10091.07       2.000000    
    10096.31       3.000000    
    10101.55       3.000000    
    10106.79       4.000000    
    10112.04       2.000000    
    10117.28      0.0000000E+00
    10122.52       2.000000    
    10127.76       1.000000    
    10133.00       2.000000    
    10138.24       4.000000    
    10143.48       3.000000    
    10148.72       3.000000    
    10153.96       4.000000    
    10159.20       2.000000    
    10164.44       4.000000    
    10169.68       4.000000    
    10174.92       4.000000    
    10180.16       2.000000    
    10185.40       1.000000    
    10190.64       1.000000    
    10195.88       1.000000    
    10201.12      0.0000000E+00
    10206.36       2.000000    
    10211.60       1.000000    
    10216.84       2.000000    
    10222.08      0.0000000E+00
    10227.32       1.000000    
    10232.56      0.0000000E+00
    10237.80       1.000000    
    10243.04       1.000000    
    10248.28       1.000000    
    10253.52      0.0000000E+00
    10258.76       1.000000    
    10264.00       1.000000    
    10269.24       2.000000    
    10274.48      0.0000000E+00
    10279.72       1.000000    
    10284.96      0.0000000E+00
    10290.20      0.0000000E+00
    10295.44      0.0000000E+00
    10300.68      0.0000000E+00
    10305.92      0.0000000E+00
    10311.16      0.0000000E+00
    10316.40      0.0000000E+00
    10321.64      0.0000000E+00
    10326.88      0.0000000E+00
    10332.13      0.0000000E+00
    10337.37       1.000000    
    10342.61      0.0000000E+00
    10347.85       1.000000    
    10353.09      0.0000000E+00
    10358.33      0.0000000E+00
    10363.57      0.0000000E+00
    10368.81      0.0000000E+00
    10374.05      0.0000000E+00
    10379.29      0.0000000E+00
    10384.53       1.000000    
    10389.77      0.0000000E+00
    10395.01       1.000000    
    10400.25      0.0000000E+00
    10405.49      0.0000000E+00
    10410.73       1.000000    
    10415.97      0.0000000E+00
    10421.21      0.0000000E+00
    10426.45      0.0000000E+00
    10431.69      0.0000000E+00
    10436.93      0.0000000E+00
    10442.17       1.000000    
    10447.41      0.0000000E+00
    10452.65      0.0000000E+00
    10457.89       1.000000    
    10463.13       1.000000    
    10468.37      0.0000000E+00
    10473.61      0.0000000E+00
    10478.85      0.0000000E+00
    10484.09      0.0000000E+00
    10489.33      0.0000000E+00
    10494.57       1.000000    
    10499.81      0.0000000E+00
    10505.05      0.0000000E+00
    10510.29       1.000000    
    10515.53      0.0000000E+00
    10520.77      0.0000000E+00
    10526.01       2.000000    
    10531.25       4.000000    
    10536.49       3.000000    
    10541.73       2.000000    
    10546.97       7.000000    
    10552.21       4.000000    
    10557.46       2.000000    
    10562.70      0.0000000E+00
    10567.94      0.0000000E+00
    10573.18      0.0000000E+00
    10578.42      0.0000000E+00
    10583.66      0.0000000E+00
    10588.90      0.0000000E+00
    10594.14      0.0000000E+00
    10599.38      0.0000000E+00
    10604.62      0.0000000E+00
    10609.86      0.0000000E+00
    10615.10      0.0000000E+00
    10620.34      0.0000000E+00
    10625.58      0.0000000E+00
    10630.82      0.0000000E+00
    10636.06      0.0000000E+00
    10641.30      0.0000000E+00
    10646.54      0.0000000E+00
    10651.78      0.0000000E+00
    10657.02      0.0000000E+00
    10662.26      0.0000000E+00
    10667.50      0.0000000E+00
    10672.74      0.0000000E+00
    10677.98      0.0000000E+00
    10683.22      0.0000000E+00
    10688.46      0.0000000E+00
    10693.70      0.0000000E+00
    10698.94      0.0000000E+00
    10704.18      0.0000000E+00
    10709.42      0.0000000E+00
    10714.66      0.0000000E+00
    10719.90      0.0000000E+00
    10725.14      0.0000000E+00