#Valim[V]	Vfuga [mV]
5.14 		39.3
9.50 		40.3
15.19   	41.1
20.80   	41.7
25.28		42.3
30.29		42.8
35.25		43.4
40.37		43.8
45.15		44.4
50.23		44.8
55.48		45.3
60.29		45.6
65.39		46.2
70.80		46.4
75.20 		46.9
80.60		47.1
84.00 		47.6